# == pyFAI calibration ==
# Distance Sample to Detector: 0.30723295647962184 m
# PONI: 2.002e-01, 1.996e-01 m
# Rotations: -0.005249 0.007516 -0.000000 rad
# 
# == Fit2d calibration ==
# Distance Sample-beamCenter: 307.246 mm
# Center: x=1005.963, y=1012.551 pix
# Tilt: 0.525 deg  TiltPlanRot: 55.072 deg
# 
# Detector Detector	 Spline= None	 PixelSize= 2.000e-04, 2.000e-04 m
#    Detector has a mask: False 
#    Detector has a dark current: False 
#    detector has a flat field: False 
# 
# Wavelength: 6.199e-11 m
# Mask applied: False
# Dark current applied: False
# Flat field applied: False
# Polarization factor: None
# Normalization factor: 1.0
# --> ./output//CeO2-std-4.0s-300.0mm-56301-primary-pe1_image-00000.tiff.txt
#       2th_deg             I 
  1.061322e-02    1.520000e+02
  3.183966e-02    1.497842e+02
  5.306610e-02    1.439493e+02
  7.429255e-02    1.438665e+02
  9.551899e-02    1.460665e+02
  1.167454e-01    1.437969e+02
  1.379719e-01    1.396865e+02
  1.591983e-01    1.426539e+02
  1.804248e-01    1.408714e+02
  2.016512e-01    1.400925e+02
  2.228776e-01    1.418610e+02
  2.441041e-01    1.456253e+02
  2.653305e-01    1.461021e+02
  2.865570e-01    1.466952e+02
  3.077834e-01    1.452914e+02
  3.290098e-01    1.424742e+02
  3.502363e-01    1.435649e+02
  3.714627e-01    1.451026e+02
  3.926892e-01    1.454866e+02
  4.139156e-01    1.455955e+02
  4.351421e-01    1.430267e+02
  4.563685e-01    1.441649e+02
  4.775949e-01    1.459886e+02
  4.988214e-01    1.440450e+02
  5.200478e-01    1.432438e+02
  5.412743e-01    1.462329e+02
  5.625007e-01    1.469955e+02
  5.837272e-01    1.470262e+02
  6.049536e-01    1.468120e+02
  6.261800e-01    1.488130e+02
  6.474065e-01    1.527157e+02
  6.686329e-01    1.585151e+02
  6.898594e-01    1.665523e+02
  7.110858e-01    1.838710e+02
  7.323122e-01    2.175553e+02
  7.535387e-01    2.737270e+02
  7.747651e-01    3.428019e+02
  7.959916e-01    4.380252e+02
  8.172180e-01    5.168427e+02
  8.384445e-01    5.973044e+02
  8.596709e-01    6.654636e+02
  8.808973e-01    7.258429e+02
  9.021238e-01    8.010176e+02
  9.233502e-01    8.546704e+02
  9.445767e-01    9.338745e+02
  9.658031e-01    9.875581e+02
  9.870295e-01    1.060344e+03
  1.008256e+00    1.132534e+03
  1.029482e+00    1.210449e+03
  1.050709e+00    1.298443e+03
  1.071935e+00    1.363372e+03
  1.093162e+00    1.428973e+03
  1.114388e+00    1.471873e+03
  1.135615e+00    1.502795e+03
  1.156841e+00    1.522339e+03
  1.178068e+00    1.537705e+03
  1.199294e+00    1.557402e+03
  1.220520e+00    1.567595e+03
  1.241747e+00    1.587632e+03
  1.262973e+00    1.593806e+03
  1.284200e+00    1.608675e+03
  1.305426e+00    1.617537e+03
  1.326653e+00    1.628165e+03
  1.347879e+00    1.644863e+03
  1.369106e+00    1.657532e+03
  1.390332e+00    1.676506e+03
  1.411558e+00    1.681780e+03
  1.432785e+00    1.700184e+03
  1.454011e+00    1.714887e+03
  1.475238e+00    1.732893e+03
  1.496464e+00    1.750891e+03
  1.517691e+00    1.761619e+03
  1.538917e+00    1.780835e+03
  1.560143e+00    1.786062e+03
  1.581370e+00    1.803743e+03
  1.602596e+00    1.814415e+03
  1.623823e+00    1.831734e+03
  1.645049e+00    1.850582e+03
  1.666276e+00    1.864246e+03
  1.687502e+00    1.886214e+03
  1.708729e+00    1.898921e+03
  1.729955e+00    1.923566e+03
  1.751181e+00    1.939116e+03
  1.772408e+00    1.958544e+03
  1.793634e+00    1.979056e+03
  1.814861e+00    1.996565e+03
  1.836087e+00    2.021948e+03
  1.857314e+00    2.035775e+03
  1.878540e+00    2.061705e+03
  1.899767e+00    2.077049e+03
  1.920993e+00    2.101037e+03
  1.942219e+00    2.127019e+03
  1.963446e+00    2.149789e+03
  1.984672e+00    2.182645e+03
  2.005899e+00    2.205648e+03
  2.027125e+00    2.240359e+03
  2.048352e+00    2.266949e+03
  2.069578e+00    2.303275e+03
  2.090805e+00    2.341892e+03
  2.112031e+00    2.379970e+03
  2.133257e+00    2.427475e+03
  2.154484e+00    2.463709e+03
  2.175710e+00    2.506449e+03
  2.196937e+00    2.538235e+03
  2.218163e+00    2.573413e+03
  2.239390e+00    2.602606e+03
  2.260616e+00    2.622188e+03
  2.281843e+00    2.640399e+03
  2.303069e+00    2.641519e+03
  2.324295e+00    2.647923e+03
  2.345522e+00    2.642955e+03
  2.366748e+00    2.636551e+03
  2.387975e+00    2.626462e+03
  2.409201e+00    2.608813e+03
  2.430428e+00    2.594921e+03
  2.451654e+00    2.574386e+03
  2.472880e+00    2.561610e+03
  2.494107e+00    2.541151e+03
  2.515333e+00    2.524816e+03
  2.536560e+00    2.508468e+03
  2.557786e+00    2.490474e+03
  2.579013e+00    2.477896e+03
  2.600239e+00    2.461186e+03
  2.621466e+00    2.448967e+03
  2.642692e+00    2.432659e+03
  2.663918e+00    2.418555e+03
  2.685145e+00    2.403884e+03
  2.706371e+00    2.388305e+03
  2.727598e+00    2.374899e+03
  2.748824e+00    2.355957e+03
  2.770051e+00    2.341258e+03
  2.791277e+00    2.320550e+03
  2.812504e+00    2.301975e+03
  2.833730e+00    2.282780e+03
  2.854956e+00    2.263159e+03
  2.876183e+00    2.248389e+03
  2.897409e+00    2.231584e+03
  2.918636e+00    2.217616e+03
  2.939862e+00    2.196265e+03
  2.961089e+00    2.179329e+03
  2.982315e+00    2.159978e+03
  3.003542e+00    2.140515e+03
  3.024768e+00    2.121904e+03
  3.045994e+00    2.102109e+03
  3.067221e+00    2.087129e+03
  3.088447e+00    2.068143e+03
  3.109674e+00    2.054091e+03
  3.130900e+00    2.038345e+03
  3.152127e+00    2.022176e+03
  3.173353e+00    2.005955e+03
  3.194580e+00    1.991124e+03
  3.215806e+00    1.979509e+03
  3.237032e+00    1.966186e+03
  3.258259e+00    1.956670e+03
  3.279485e+00    1.944944e+03
  3.300712e+00    1.934541e+03
  3.321938e+00    1.922835e+03
  3.343165e+00    1.910300e+03
  3.364391e+00    1.900132e+03
  3.385617e+00    1.884955e+03
  3.406844e+00    1.877030e+03
  3.428070e+00    1.866563e+03
  3.449297e+00    1.858033e+03
  3.470523e+00    1.851281e+03
  3.491750e+00    1.842649e+03
  3.512976e+00    1.837146e+03
  3.534203e+00    1.828865e+03
  3.555429e+00    1.824718e+03
  3.576655e+00    1.819434e+03
  3.597882e+00    1.813993e+03
  3.619108e+00    1.807371e+03
  3.640335e+00    1.802083e+03
  3.661561e+00    1.802688e+03
  3.682788e+00    1.798886e+03
  3.704014e+00    1.797857e+03
  3.725241e+00    1.794690e+03
  3.746467e+00    1.794648e+03
  3.767693e+00    1.795705e+03
  3.788920e+00    1.795022e+03
  3.810146e+00    1.795204e+03
  3.831373e+00    1.792199e+03
  3.852599e+00    1.794690e+03
  3.873826e+00    1.794641e+03
  3.895052e+00    1.797182e+03
  3.916279e+00    1.800462e+03
  3.937505e+00    1.803072e+03
  3.958731e+00    1.809273e+03
  3.979958e+00    1.808844e+03
  4.001184e+00    1.813322e+03
  4.022411e+00    1.814551e+03
  4.043637e+00    1.818175e+03
  4.064864e+00    1.821543e+03
  4.086090e+00    1.824039e+03
  4.107317e+00    1.830111e+03
  4.128543e+00    1.831783e+03
  4.149769e+00    1.838804e+03
  4.170996e+00    1.840975e+03
  4.192222e+00    1.844806e+03
  4.213449e+00    1.850572e+03
  4.234675e+00    1.856493e+03
  4.255902e+00    1.866317e+03
  4.277128e+00    1.869998e+03
  4.298354e+00    1.878043e+03
  4.319581e+00    1.881148e+03
  4.340807e+00    1.888298e+03
  4.362034e+00    1.896680e+03
  4.383260e+00    1.903294e+03
  4.404487e+00    1.911727e+03
  4.425713e+00    1.914399e+03
  4.446940e+00    1.924877e+03
  4.468166e+00    1.931384e+03
  4.489392e+00    1.936934e+03
  4.510619e+00    1.942519e+03
  4.531845e+00    1.947679e+03
  4.553072e+00    1.957521e+03
  4.574298e+00    1.959865e+03
  4.595525e+00    1.967286e+03
  4.616751e+00    1.971616e+03
  4.637978e+00    1.977697e+03
  4.659204e+00    1.983510e+03
  4.680430e+00    1.985594e+03
  4.701657e+00    1.992491e+03
  4.722883e+00    1.993727e+03
  4.744110e+00    1.999732e+03
  4.765336e+00    2.004323e+03
  4.786563e+00    2.010414e+03
  4.807789e+00    2.017564e+03
  4.829016e+00    2.019855e+03
  4.850242e+00    2.028302e+03
  4.871468e+00    2.031128e+03
  4.892695e+00    2.039241e+03
  4.913921e+00    2.045362e+03
  4.935148e+00    2.050309e+03
  4.956374e+00    2.056180e+03
  4.977601e+00    2.058266e+03
  4.998827e+00    2.065722e+03
  5.020054e+00    2.065960e+03
  5.041280e+00    2.071077e+03
  5.062506e+00    2.074821e+03
  5.083733e+00    2.077049e+03
  5.104959e+00    2.082892e+03
  5.126186e+00    2.082650e+03
  5.147412e+00    2.085670e+03
  5.168639e+00    2.084133e+03
  5.189865e+00    2.086033e+03
  5.211091e+00    2.085595e+03
  5.232318e+00    2.085332e+03
  5.253544e+00    2.088596e+03
  5.274771e+00    2.086944e+03
  5.295997e+00    2.090442e+03
  5.317224e+00    2.089648e+03
  5.338450e+00    2.092766e+03
  5.359677e+00    2.093295e+03
  5.380903e+00    2.093263e+03
  5.402129e+00    2.098105e+03
  5.423356e+00    2.098658e+03
  5.444582e+00    2.104775e+03
  5.465809e+00    2.107753e+03
  5.487035e+00    2.113770e+03
  5.508262e+00    2.118779e+03
  5.529488e+00    2.121619e+03
  5.550715e+00    2.128084e+03
  5.571941e+00    2.131488e+03
  5.593167e+00    2.137574e+03
  5.614394e+00    2.139651e+03
  5.635620e+00    2.144713e+03
  5.656847e+00    2.149222e+03
  5.678073e+00    2.149989e+03
  5.699300e+00    2.150367e+03
  5.720526e+00    2.149797e+03
  5.741753e+00    2.158180e+03
  5.762979e+00    2.163996e+03
  5.784205e+00    2.170615e+03
  5.805432e+00    2.175908e+03
  5.826658e+00    2.179029e+03
  5.847885e+00    2.186213e+03
  5.869111e+00    2.189103e+03
  5.890338e+00    2.196520e+03
  5.911564e+00    2.201291e+03
  5.932791e+00    2.208222e+03
  5.954017e+00    2.216001e+03
  5.975243e+00    2.219773e+03
  5.996470e+00    2.227892e+03
  6.017696e+00    2.231319e+03
  6.038923e+00    2.238424e+03
  6.060149e+00    2.243383e+03
  6.081376e+00    2.249056e+03
  6.102602e+00    2.255780e+03
  6.123828e+00    2.260667e+03
  6.145055e+00    2.269488e+03
  6.166281e+00    2.272626e+03
  6.187508e+00    2.279825e+03
  6.208734e+00    2.285888e+03
  6.229961e+00    2.290993e+03
  6.251187e+00    2.299990e+03
  6.272414e+00    2.306230e+03
  6.293640e+00    2.315938e+03
  6.314866e+00    2.320106e+03
  6.336093e+00    2.326586e+03
  6.357319e+00    2.332786e+03
  6.378546e+00    2.337939e+03
  6.399772e+00    2.347203e+03
  6.420999e+00    2.352179e+03
  6.442225e+00    2.362660e+03
  6.463452e+00    2.368850e+03
  6.484678e+00    2.377256e+03
  6.505904e+00    2.385433e+03
  6.527131e+00    2.390351e+03
  6.548357e+00    2.398298e+03
  6.569584e+00    2.401734e+03
  6.590810e+00    2.410975e+03
  6.612037e+00    2.416886e+03
  6.633263e+00    2.423670e+03
  6.654490e+00    2.431563e+03
  6.675716e+00    2.435646e+03
  6.696942e+00    2.443540e+03
  6.718169e+00    2.446122e+03
  6.739395e+00    2.451273e+03
  6.760622e+00    2.454389e+03
  6.781848e+00    2.459473e+03
  6.803075e+00    2.464847e+03
  6.824301e+00    2.467034e+03
  6.845528e+00    2.474819e+03
  6.866754e+00    2.478564e+03
  6.887980e+00    2.484213e+03
  6.909207e+00    2.488249e+03
  6.930433e+00    2.492379e+03
  6.951660e+00    2.499318e+03
  6.972886e+00    2.503063e+03
  6.994113e+00    2.508072e+03
  7.015339e+00    2.509163e+03
  7.036565e+00    2.513531e+03
  7.057792e+00    2.516704e+03
  7.079018e+00    2.516345e+03
  7.100245e+00    2.519095e+03
  7.121471e+00    2.519023e+03
  7.142698e+00    2.523120e+03
  7.163924e+00    2.524144e+03
  7.185151e+00    2.526291e+03
  7.206377e+00    2.530606e+03
  7.227603e+00    2.533441e+03
  7.248830e+00    2.537449e+03
  7.270056e+00    2.537446e+03
  7.291283e+00    2.539275e+03
  7.312509e+00    2.537357e+03
  7.333736e+00    2.535205e+03
  7.354962e+00    2.534431e+03
  7.376189e+00    2.531907e+03
  7.397415e+00    2.528958e+03
  7.418641e+00    2.521463e+03
  7.439868e+00    2.518316e+03
  7.461094e+00    2.517331e+03
  7.482321e+00    2.516596e+03
  7.503547e+00    2.515952e+03
  7.524774e+00    2.510980e+03
  7.546000e+00    2.509003e+03
  7.567227e+00    2.504684e+03
  7.588453e+00    2.501302e+03
  7.609679e+00    2.499434e+03
  7.630906e+00    2.494627e+03
  7.652132e+00    2.492331e+03
  7.673359e+00    2.488277e+03
  7.694585e+00    2.487213e+03
  7.715812e+00    2.484251e+03
  7.737038e+00    2.481812e+03
  7.758265e+00    2.479472e+03
  7.779491e+00    2.473308e+03
  7.800717e+00    2.470542e+03
  7.821944e+00    2.464633e+03
  7.843170e+00    2.461152e+03
  7.864397e+00    2.455756e+03
  7.885623e+00    2.448615e+03
  7.906850e+00    2.443735e+03
  7.928076e+00    2.436500e+03
  7.949302e+00    2.431904e+03
  7.970529e+00    2.425179e+03
  7.991755e+00    2.420491e+03
  8.012982e+00    2.414983e+03
  8.034208e+00    2.407870e+03
  8.055435e+00    2.402579e+03
  8.076661e+00    2.395549e+03
  8.097888e+00    2.391361e+03
  8.119114e+00    2.385145e+03
  8.140340e+00    2.378317e+03
  8.161567e+00    2.373807e+03
  8.182793e+00    2.369111e+03
  8.204020e+00    2.365998e+03
  8.225246e+00    2.359088e+03
  8.246473e+00    2.353546e+03
  8.267699e+00    2.346518e+03
  8.288926e+00    2.339029e+03
  8.310152e+00    2.335050e+03
  8.331378e+00    2.328877e+03
  8.352605e+00    2.323087e+03
  8.373831e+00    2.315705e+03
  8.395058e+00    2.309631e+03
  8.416284e+00    2.304316e+03
  8.437511e+00    2.298227e+03
  8.458737e+00    2.293115e+03
  8.479964e+00    2.285688e+03
  8.501190e+00    2.279792e+03
  8.522416e+00    2.273725e+03
  8.543643e+00    2.267533e+03
  8.564869e+00    2.262320e+03
  8.586096e+00    2.256435e+03
  8.607322e+00    2.252852e+03
  8.628549e+00    2.247547e+03
  8.649775e+00    2.243077e+03
  8.671002e+00    2.238429e+03
  8.692228e+00    2.234416e+03
  8.713454e+00    2.231778e+03
  8.734681e+00    2.226218e+03
  8.755907e+00    2.222071e+03
  8.777134e+00    2.215749e+03
  8.798360e+00    2.209936e+03
  8.819587e+00    2.204738e+03
  8.840813e+00    2.199649e+03
  8.862039e+00    2.195740e+03
  8.883266e+00    2.189346e+03
  8.904492e+00    2.184282e+03
  8.925719e+00    2.177491e+03
  8.946945e+00    2.169589e+03
  8.968172e+00    2.166001e+03
  8.989398e+00    2.160914e+03
  9.010625e+00    2.156503e+03
  9.031851e+00    2.150023e+03
  9.053077e+00    2.145144e+03
  9.074304e+00    2.139783e+03
  9.095530e+00    2.133045e+03
  9.116757e+00    2.127739e+03
  9.137983e+00    2.121962e+03
  9.159210e+00    2.126788e+03
  9.180436e+00    2.143792e+03
  9.201663e+00    2.138643e+03
  9.222889e+00    2.106779e+03
  9.244115e+00    2.098617e+03
  9.265342e+00    2.094183e+03
  9.286568e+00    2.088635e+03
  9.307795e+00    2.083458e+03
  9.329021e+00    2.077549e+03
  9.350248e+00    2.070615e+03
  9.371474e+00    2.066021e+03
  9.392701e+00    2.059574e+03
  9.413927e+00    2.053661e+03
  9.435153e+00    2.047597e+03
  9.456380e+00    2.043935e+03
  9.477606e+00    2.041063e+03
  9.498833e+00    2.035961e+03
  9.520059e+00    2.031453e+03
  9.541286e+00    2.026267e+03
  9.562512e+00    2.022022e+03
  9.583739e+00    2.017424e+03
  9.604965e+00    2.013501e+03
  9.626191e+00    2.010850e+03
  9.647418e+00    2.007029e+03
  9.668644e+00    2.004495e+03
  9.689871e+00    2.001115e+03
  9.711097e+00    1.997262e+03
  9.732324e+00    1.993780e+03
  9.753550e+00    1.988843e+03
  9.774776e+00    1.985919e+03
  9.796003e+00    1.982773e+03
  9.817229e+00    1.979624e+03
  9.838456e+00    1.976876e+03
  9.859682e+00    1.974002e+03
  9.880909e+00    1.972230e+03
  9.902135e+00    1.968223e+03
  9.923362e+00    1.966865e+03
  9.944588e+00    1.964734e+03
  9.965814e+00    1.962138e+03
  9.987041e+00    1.961785e+03
  1.000827e+01    1.958758e+03
  1.002949e+01    1.956616e+03
  1.005072e+01    1.953895e+03
  1.007195e+01    1.952090e+03
  1.009317e+01    1.950199e+03
  1.011440e+01    1.948642e+03
  1.013563e+01    1.949975e+03
  1.015685e+01    1.949471e+03
  1.017808e+01    1.949001e+03
  1.019931e+01    1.948336e+03
  1.022053e+01    1.947916e+03
  1.024176e+01    1.946595e+03
  1.026298e+01    1.943065e+03
  1.028421e+01    1.941921e+03
  1.030544e+01    1.939755e+03
  1.032666e+01    1.937024e+03
  1.034789e+01    1.936154e+03
  1.036912e+01    1.933768e+03
  1.039034e+01    1.932804e+03
  1.041157e+01    1.932090e+03
  1.043280e+01    1.932500e+03
  1.045402e+01    1.933457e+03
  1.047525e+01    1.934865e+03
  1.049648e+01    1.938762e+03
  1.051770e+01    1.940689e+03
  1.053893e+01    1.940535e+03
  1.056015e+01    1.939869e+03
  1.058138e+01    1.937236e+03
  1.060261e+01    1.934846e+03
  1.062383e+01    1.931706e+03
  1.064506e+01    1.931726e+03
  1.066629e+01    1.932169e+03
  1.068751e+01    1.932077e+03
  1.070874e+01    1.932479e+03
  1.072997e+01    1.931490e+03
  1.075119e+01    1.931784e+03
  1.077242e+01    1.932060e+03
  1.079365e+01    1.932972e+03
  1.081487e+01    1.933652e+03
  1.083610e+01    1.935019e+03
  1.085733e+01    1.940214e+03
  1.087855e+01    1.944434e+03
  1.089978e+01    1.950566e+03
  1.092100e+01    1.957347e+03
  1.094223e+01    1.964075e+03
  1.096346e+01    1.972742e+03
  1.098468e+01    1.981354e+03
  1.100591e+01    1.990538e+03
  1.102714e+01    2.000055e+03
  1.104836e+01    2.011381e+03
  1.106959e+01    2.027342e+03
  1.109082e+01    2.047607e+03
  1.111204e+01    2.080227e+03
  1.113327e+01    2.132572e+03
  1.115450e+01    2.228648e+03
  1.117572e+01    2.420916e+03
  1.119695e+01    2.823049e+03
  1.121817e+01    3.737011e+03
  1.123940e+01    5.829925e+03
  1.126063e+01    1.054834e+04
  1.128185e+01    2.042440e+04
  1.130308e+01    3.550532e+04
  1.132431e+01    5.096612e+04
  1.134553e+01    6.027490e+04
  1.136676e+01    6.309322e+04
  1.138799e+01    6.284868e+04
  1.140921e+01    5.917837e+04
  1.143044e+01    4.930538e+04
  1.145167e+01    3.420329e+04
  1.147289e+01    1.966650e+04
  1.149412e+01    1.025037e+04
  1.151534e+01    5.652860e+03
  1.153657e+01    3.574134e+03
  1.155780e+01    2.673384e+03
  1.157902e+01    2.275746e+03
  1.160025e+01    2.086463e+03
  1.162148e+01    1.991009e+03
  1.164270e+01    1.935324e+03
  1.166393e+01    1.898053e+03
  1.168516e+01    1.871641e+03
  1.170638e+01    1.850122e+03
  1.172761e+01    1.833522e+03
  1.174884e+01    1.817756e+03
  1.177006e+01    1.802586e+03
  1.179129e+01    1.788175e+03
  1.181251e+01    1.772849e+03
  1.183374e+01    1.759578e+03
  1.185497e+01    1.746492e+03
  1.187619e+01    1.733106e+03
  1.189742e+01    1.720554e+03
  1.191865e+01    1.707805e+03
  1.193987e+01    1.696195e+03
  1.196110e+01    1.684185e+03
  1.198233e+01    1.674660e+03
  1.200355e+01    1.667288e+03
  1.202478e+01    1.659666e+03
  1.204601e+01    1.652276e+03
  1.206723e+01    1.643723e+03
  1.208846e+01    1.637280e+03
  1.210969e+01    1.631691e+03
  1.213091e+01    1.625521e+03
  1.215214e+01    1.620401e+03
  1.217336e+01    1.614189e+03
  1.219459e+01    1.609206e+03
  1.221582e+01    1.604989e+03
  1.223704e+01    1.600453e+03
  1.225827e+01    1.595582e+03
  1.227950e+01    1.588991e+03
  1.230072e+01    1.584670e+03
  1.232195e+01    1.580761e+03
  1.234318e+01    1.575129e+03
  1.236440e+01    1.570332e+03
  1.238563e+01    1.565799e+03
  1.240686e+01    1.561653e+03
  1.242808e+01    1.556905e+03
  1.244931e+01    1.551901e+03
  1.247053e+01    1.548342e+03
  1.249176e+01    1.543789e+03
  1.251299e+01    1.540987e+03
  1.253421e+01    1.538587e+03
  1.255544e+01    1.536049e+03
  1.257667e+01    1.534110e+03
  1.259789e+01    1.531608e+03
  1.261912e+01    1.529692e+03
  1.264035e+01    1.526909e+03
  1.266157e+01    1.524095e+03
  1.268280e+01    1.523823e+03
  1.270403e+01    1.522824e+03
  1.272525e+01    1.522257e+03
  1.274648e+01    1.522341e+03
  1.276770e+01    1.522676e+03
  1.278893e+01    1.523098e+03
  1.281016e+01    1.524011e+03
  1.283138e+01    1.526395e+03
  1.285261e+01    1.528238e+03
  1.287384e+01    1.533509e+03
  1.289506e+01    1.544233e+03
  1.291629e+01    1.563284e+03
  1.293752e+01    1.603205e+03
  1.295874e+01    1.688065e+03
  1.297997e+01    1.877472e+03
  1.300120e+01    2.321596e+03
  1.302242e+01    3.329586e+03
  1.304365e+01    5.566932e+03
  1.306487e+01    9.777227e+03
  1.308610e+01    1.632132e+04
  1.310733e+01    2.408596e+04
  1.312855e+01    2.991361e+04
  1.314978e+01    3.097117e+04
  1.317101e+01    2.670806e+04
  1.319223e+01    1.929668e+04
  1.321346e+01    1.217198e+04
  1.323469e+01    7.027103e+03
  1.325591e+01    4.073290e+03
  1.327714e+01    2.623571e+03
  1.329837e+01    1.964754e+03
  1.331959e+01    1.682493e+03
  1.334082e+01    1.554813e+03
  1.336205e+01    1.496076e+03
  1.338327e+01    1.465366e+03
  1.340450e+01    1.447377e+03
  1.342572e+01    1.435764e+03
  1.344695e+01    1.426089e+03
  1.346818e+01    1.417732e+03
  1.348940e+01    1.410574e+03
  1.351063e+01    1.404459e+03
  1.353186e+01    1.397202e+03
  1.355308e+01    1.390724e+03
  1.357431e+01    1.386090e+03
  1.359554e+01    1.381149e+03
  1.361676e+01    1.376825e+03
  1.363799e+01    1.372343e+03
  1.365922e+01    1.367160e+03
  1.368044e+01    1.363317e+03
  1.370167e+01    1.357928e+03
  1.372289e+01    1.352871e+03
  1.374412e+01    1.349860e+03
  1.376535e+01    1.346348e+03
  1.378657e+01    1.343206e+03
  1.380780e+01    1.340635e+03
  1.382903e+01    1.338005e+03
  1.385025e+01    1.334459e+03
  1.387148e+01    1.330021e+03
  1.389271e+01    1.326512e+03
  1.391393e+01    1.322893e+03
  1.393516e+01    1.320262e+03
  1.395639e+01    1.318643e+03
  1.397761e+01    1.315874e+03
  1.399884e+01    1.313398e+03
  1.402006e+01    1.309751e+03
  1.404129e+01    1.305981e+03
  1.406252e+01    1.302984e+03
  1.408374e+01    1.299868e+03
  1.410497e+01    1.297239e+03
  1.412620e+01    1.294039e+03
  1.414742e+01    1.291422e+03
  1.416865e+01    1.289283e+03
  1.418988e+01    1.286463e+03
  1.421110e+01    1.284289e+03
  1.423233e+01    1.282002e+03
  1.425356e+01    1.279332e+03
  1.427478e+01    1.276817e+03
  1.429601e+01    1.273962e+03
  1.431724e+01    1.273076e+03
  1.433846e+01    1.271243e+03
  1.435969e+01    1.267463e+03
  1.438091e+01    1.265424e+03
  1.440214e+01    1.261904e+03
  1.442337e+01    1.259514e+03
  1.444459e+01    1.258686e+03
  1.446582e+01    1.257165e+03
  1.448705e+01    1.254882e+03
  1.450827e+01    1.252888e+03
  1.452950e+01    1.250334e+03
  1.455073e+01    1.247943e+03
  1.457195e+01    1.245770e+03
  1.459318e+01    1.243989e+03
  1.461441e+01    1.241219e+03
  1.463563e+01    1.238606e+03
  1.465686e+01    1.236378e+03
  1.467808e+01    1.234801e+03
  1.469931e+01    1.234360e+03
  1.472054e+01    1.231988e+03
  1.474176e+01    1.230030e+03
  1.476299e+01    1.228875e+03
  1.478422e+01    1.226653e+03
  1.480544e+01    1.224448e+03
  1.482667e+01    1.222487e+03
  1.484790e+01    1.220321e+03
  1.486912e+01    1.218838e+03
  1.489035e+01    1.217010e+03
  1.491158e+01    1.215295e+03
  1.493280e+01    1.214073e+03
  1.495403e+01    1.212568e+03
  1.497525e+01    1.212004e+03
  1.499648e+01    1.210801e+03
  1.501771e+01    1.208913e+03
  1.503893e+01    1.207448e+03
  1.506016e+01    1.206001e+03
  1.508139e+01    1.205557e+03
  1.510261e+01    1.204176e+03
  1.512384e+01    1.201926e+03
  1.514507e+01    1.200447e+03
  1.516629e+01    1.198768e+03
  1.518752e+01    1.197974e+03
  1.520875e+01    1.197208e+03
  1.522997e+01    1.196248e+03
  1.525120e+01    1.195101e+03
  1.527242e+01    1.193077e+03
  1.529365e+01    1.191777e+03
  1.531488e+01    1.190959e+03
  1.533610e+01    1.189352e+03
  1.535733e+01    1.187689e+03
  1.537856e+01    1.186334e+03
  1.539978e+01    1.184516e+03
  1.542101e+01    1.182711e+03
  1.544224e+01    1.181506e+03
  1.546346e+01    1.180024e+03
  1.548469e+01    1.178219e+03
  1.550592e+01    1.176693e+03
  1.552714e+01    1.176250e+03
  1.554837e+01    1.175954e+03
  1.556960e+01    1.174882e+03
  1.559082e+01    1.172694e+03
  1.561205e+01    1.171413e+03
  1.563327e+01    1.171214e+03
  1.565450e+01    1.170932e+03
  1.567573e+01    1.170427e+03
  1.569695e+01    1.169249e+03
  1.571818e+01    1.167837e+03
  1.573941e+01    1.166671e+03
  1.576063e+01    1.166186e+03
  1.578186e+01    1.165666e+03
  1.580309e+01    1.163754e+03
  1.582431e+01    1.162042e+03
  1.584554e+01    1.160755e+03
  1.586677e+01    1.160003e+03
  1.588799e+01    1.159222e+03
  1.590922e+01    1.158538e+03
  1.593044e+01    1.158413e+03
  1.595167e+01    1.158799e+03
  1.597290e+01    1.158970e+03
  1.599412e+01    1.158125e+03
  1.601535e+01    1.158020e+03
  1.603658e+01    1.157123e+03
  1.605780e+01    1.155698e+03
  1.607903e+01    1.153864e+03
  1.610026e+01    1.151889e+03
  1.612148e+01    1.150674e+03
  1.614271e+01    1.149526e+03
  1.616394e+01    1.148416e+03
  1.618516e+01    1.147899e+03
  1.620639e+01    1.147390e+03
  1.622761e+01    1.146694e+03
  1.624884e+01    1.145264e+03
  1.627007e+01    1.144396e+03
  1.629129e+01    1.144510e+03
  1.631252e+01    1.143771e+03
  1.633375e+01    1.142294e+03
  1.635497e+01    1.140515e+03
  1.637620e+01    1.139416e+03
  1.639743e+01    1.138887e+03
  1.641865e+01    1.137786e+03
  1.643988e+01    1.136119e+03
  1.646111e+01    1.134796e+03
  1.648233e+01    1.134611e+03
  1.650356e+01    1.134882e+03
  1.652479e+01    1.134381e+03
  1.654601e+01    1.133959e+03
  1.656724e+01    1.133039e+03
  1.658846e+01    1.131782e+03
  1.660969e+01    1.129316e+03
  1.663092e+01    1.127413e+03
  1.665214e+01    1.132531e+03
  1.667337e+01    1.144096e+03
  1.669460e+01    1.141869e+03
  1.671582e+01    1.124410e+03
  1.673705e+01    1.123207e+03
  1.675828e+01    1.122833e+03
  1.677950e+01    1.122479e+03
  1.680073e+01    1.121383e+03
  1.682196e+01    1.120515e+03
  1.684318e+01    1.119383e+03
  1.686441e+01    1.118748e+03
  1.688563e+01    1.118600e+03
  1.690686e+01    1.117947e+03
  1.692809e+01    1.118107e+03
  1.694931e+01    1.117364e+03
  1.697054e+01    1.115872e+03
  1.699177e+01    1.114923e+03
  1.701299e+01    1.114247e+03
  1.703422e+01    1.113338e+03
  1.705545e+01    1.112318e+03
  1.707667e+01    1.111100e+03
  1.709790e+01    1.110746e+03
  1.711913e+01    1.111070e+03
  1.714035e+01    1.111538e+03
  1.716158e+01    1.114476e+03
  1.718280e+01    1.120149e+03
  1.720403e+01    1.129161e+03
  1.722526e+01    1.138931e+03
  1.724648e+01    1.141511e+03
  1.726771e+01    1.137390e+03
  1.728894e+01    1.130245e+03
  1.731016e+01    1.123711e+03
  1.733139e+01    1.118293e+03
  1.735262e+01    1.113960e+03
  1.737384e+01    1.111043e+03
  1.739507e+01    1.109255e+03
  1.741630e+01    1.108123e+03
  1.743752e+01    1.108688e+03
  1.745875e+01    1.110342e+03
  1.747997e+01    1.110876e+03
  1.750120e+01    1.111476e+03
  1.752243e+01    1.111998e+03
  1.754365e+01    1.111422e+03
  1.756488e+01    1.110799e+03
  1.758611e+01    1.110071e+03
  1.760733e+01    1.110219e+03
  1.762856e+01    1.110665e+03
  1.764979e+01    1.111100e+03
  1.767101e+01    1.111070e+03
  1.769224e+01    1.111103e+03
  1.771347e+01    1.112321e+03
  1.773469e+01    1.112630e+03
  1.775592e+01    1.112260e+03
  1.777715e+01    1.112867e+03
  1.779837e+01    1.113699e+03
  1.781960e+01    1.114846e+03
  1.784082e+01    1.116350e+03
  1.786205e+01    1.117615e+03
  1.788328e+01    1.118533e+03
  1.790450e+01    1.120015e+03
  1.792573e+01    1.121375e+03
  1.794696e+01    1.122574e+03
  1.796818e+01    1.123898e+03
  1.798941e+01    1.125216e+03
  1.801064e+01    1.126002e+03
  1.803186e+01    1.127782e+03
  1.805309e+01    1.129934e+03
  1.807432e+01    1.132587e+03
  1.809554e+01    1.135663e+03
  1.811677e+01    1.139479e+03
  1.813799e+01    1.144816e+03
  1.815922e+01    1.150237e+03
  1.818045e+01    1.155990e+03
  1.820167e+01    1.162847e+03
  1.822290e+01    1.171301e+03
  1.824413e+01    1.181488e+03
  1.826535e+01    1.190522e+03
  1.828658e+01    1.199685e+03
  1.830781e+01    1.208701e+03
  1.832903e+01    1.219650e+03
  1.835026e+01    1.235775e+03
  1.837149e+01    1.257512e+03
  1.839271e+01    1.290391e+03
  1.841394e+01    1.343389e+03
  1.843516e+01    1.439725e+03
  1.845639e+01    1.642226e+03
  1.847762e+01    2.107917e+03
  1.849884e+01    3.201291e+03
  1.852007e+01    5.793001e+03
  1.854130e+01    1.153795e+04
  1.856252e+01    2.216854e+04
  1.858375e+01    3.771374e+04
  1.860498e+01    5.249488e+04
  1.862620e+01    6.039653e+04
  1.864743e+01    5.823352e+04
  1.866866e+01    4.737106e+04
  1.868988e+01    3.196953e+04
  1.871111e+01    1.818197e+04
  1.873233e+01    9.313148e+03
  1.875356e+01    4.704081e+03
  1.877479e+01    2.691318e+03
  1.879601e+01    1.833952e+03
  1.881724e+01    1.473614e+03
  1.883847e+01    1.317219e+03
  1.885969e+01    1.242236e+03
  1.888092e+01    1.201224e+03
  1.890215e+01    1.175909e+03
  1.892337e+01    1.158052e+03
  1.894460e+01    1.143814e+03
  1.896583e+01    1.131626e+03
  1.898705e+01    1.120346e+03
  1.900828e+01    1.110113e+03
  1.902951e+01    1.100926e+03
  1.905073e+01    1.091995e+03
  1.907196e+01    1.082990e+03
  1.909318e+01    1.075141e+03
  1.911441e+01    1.068318e+03
  1.913564e+01    1.061307e+03
  1.915686e+01    1.054440e+03
  1.917809e+01    1.049110e+03
  1.919932e+01    1.044027e+03
  1.922054e+01    1.039013e+03
  1.924177e+01    1.033964e+03
  1.926300e+01    1.029186e+03
  1.928422e+01    1.024818e+03
  1.930545e+01    1.021126e+03
  1.932668e+01    1.016986e+03
  1.934790e+01    1.012974e+03
  1.936913e+01    1.009866e+03
  1.939035e+01    1.006846e+03
  1.941158e+01    1.002883e+03
  1.943281e+01    9.996163e+02
  1.945403e+01    9.976281e+02
  1.947526e+01    9.952259e+02
  1.949649e+01    9.921360e+02
  1.951771e+01    9.888952e+02
  1.953894e+01    9.864149e+02
  1.956017e+01    9.841219e+02
  1.958139e+01    9.814567e+02
  1.960262e+01    9.789807e+02
  1.962385e+01    9.761259e+02
  1.964507e+01    9.736215e+02
  1.966630e+01    9.717172e+02
  1.968752e+01    9.699779e+02
  1.970875e+01    9.683797e+02
  1.972998e+01    9.665853e+02
  1.975120e+01    9.649440e+02
  1.977243e+01    9.631359e+02
  1.979366e+01    9.605596e+02
  1.981488e+01    9.582938e+02
  1.983611e+01    9.564459e+02
  1.985734e+01    9.557778e+02
  1.987856e+01    9.552949e+02
  1.989979e+01    9.542582e+02
  1.992102e+01    9.524818e+02
  1.994224e+01    9.499227e+02
  1.996347e+01    9.482862e+02
  1.998470e+01    9.468450e+02
  2.000592e+01    9.451673e+02
  2.002715e+01    9.426328e+02
  2.004837e+01    9.412028e+02
  2.006960e+01    9.404695e+02
  2.009083e+01    9.394305e+02
  2.011205e+01    9.379255e+02
  2.013328e+01    9.362350e+02
  2.015451e+01    9.351771e+02
  2.017573e+01    9.348019e+02
  2.019696e+01    9.340665e+02
  2.021819e+01    9.336088e+02
  2.023941e+01    9.329161e+02
  2.026064e+01    9.309611e+02
  2.028187e+01    9.293240e+02
  2.030309e+01    9.285953e+02
  2.032432e+01    9.284292e+02
  2.034554e+01    9.280200e+02
  2.036677e+01    9.271310e+02
  2.038800e+01    9.273222e+02
  2.040922e+01    9.278975e+02
  2.043045e+01    9.285705e+02
  2.045168e+01    9.285693e+02
  2.047290e+01    9.283985e+02
  2.049413e+01    9.281555e+02
  2.051536e+01    9.276646e+02
  2.053658e+01    9.268635e+02
  2.055781e+01    9.251487e+02
  2.057904e+01    9.236708e+02
  2.060026e+01    9.228382e+02
  2.062149e+01    9.229785e+02
  2.064271e+01    9.233873e+02
  2.066394e+01    9.235417e+02
  2.068517e+01    9.234859e+02
  2.070639e+01    9.200505e+02
  2.072762e+01    9.190759e+02
  2.074885e+01    9.206213e+02
  2.077007e+01    9.204390e+02
  2.079130e+01    9.204296e+02
  2.081253e+01    9.211060e+02
  2.083375e+01    9.220849e+02
  2.085498e+01    9.225897e+02
  2.087621e+01    9.223445e+02
  2.089743e+01    9.225588e+02
  2.091866e+01    9.233616e+02
  2.093988e+01    9.242266e+02
  2.096111e+01    9.252286e+02
  2.098234e+01    9.263696e+02
  2.100356e+01    9.280593e+02
  2.102479e+01    9.290862e+02
  2.104602e+01    9.298401e+02
  2.106724e+01    9.305270e+02
  2.108847e+01    9.315560e+02
  2.110970e+01    9.330115e+02
  2.113092e+01    9.359589e+02
  2.115215e+01    9.386404e+02
  2.117338e+01    9.410130e+02
  2.119460e+01    9.441542e+02
  2.121583e+01    9.468271e+02
  2.123706e+01    9.480345e+02
  2.125828e+01    9.491306e+02
  2.127951e+01    9.508897e+02
  2.130073e+01    9.529226e+02
  2.132196e+01    9.552433e+02
  2.134319e+01    9.576277e+02
  2.136441e+01    9.603308e+02
  2.138564e+01    9.645464e+02
  2.140687e+01    9.690706e+02
  2.142809e+01    9.746794e+02
  2.144932e+01    9.808269e+02
  2.147055e+01    9.876586e+02
  2.149177e+01    9.958852e+02
  2.151300e+01    1.004603e+03
  2.153423e+01    1.013319e+03
  2.155545e+01    1.022590e+03
  2.157668e+01    1.032027e+03
  2.159790e+01    1.044889e+03
  2.161913e+01    1.061227e+03
  2.164036e+01    1.083405e+03
  2.166158e+01    1.117304e+03
  2.168281e+01    1.173834e+03
  2.170404e+01    1.281597e+03
  2.172526e+01    1.514977e+03
  2.174649e+01    2.070865e+03
  2.176772e+01    3.429346e+03
  2.178894e+01    6.669774e+03
  2.181017e+01    1.357523e+04
  2.183140e+01    2.520813e+04
  2.185262e+01    4.010830e+04
  2.187385e+01    5.182435e+04
  2.189507e+01    5.407257e+04
  2.191630e+01    4.561212e+04
  2.193753e+01    3.140737e+04
  2.195875e+01    1.810549e+04
  2.197998e+01    9.172718e+03
  2.200121e+01    4.556456e+03
  2.202243e+01    2.487571e+03
  2.204366e+01    1.638557e+03
  2.206489e+01    1.296784e+03
  2.208611e+01    1.150360e+03
  2.210734e+01    1.082696e+03
  2.212857e+01    1.046821e+03
  2.214979e+01    1.025411e+03
  2.217102e+01    1.011075e+03
  2.219225e+01    9.987631e+02
  2.221347e+01    9.880668e+02
  2.223470e+01    9.790155e+02
  2.225592e+01    9.702058e+02
  2.227715e+01    9.629506e+02
  2.229838e+01    9.565283e+02
  2.231960e+01    9.491772e+02
  2.234083e+01    9.423436e+02
  2.236206e+01    9.377675e+02
  2.238328e+01    9.338089e+02
  2.240451e+01    9.302354e+02
  2.242574e+01    9.265434e+02
  2.244696e+01    9.224663e+02
  2.246819e+01    9.203148e+02
  2.248942e+01    9.185348e+02
  2.251064e+01    9.156577e+02
  2.253187e+01    9.136914e+02
  2.255309e+01    9.123232e+02
  2.257432e+01    9.113956e+02
  2.259555e+01    9.114257e+02
  2.261677e+01    9.129995e+02
  2.263800e+01    9.158235e+02
  2.265923e+01    9.219752e+02
  2.268045e+01    9.340189e+02
  2.270168e+01    9.612004e+02
  2.272291e+01    1.024029e+03
  2.274413e+01    1.178379e+03
  2.276536e+01    1.558163e+03
  2.278659e+01    2.425546e+03
  2.280781e+01    4.126959e+03
  2.282904e+01    6.750644e+03
  2.285026e+01    9.551651e+03
  2.287149e+01    1.116515e+04
  2.289272e+01    1.046772e+04
  2.291394e+01    8.052436e+03
  2.293517e+01    5.236024e+03
  2.295640e+01    3.092007e+03
  2.297762e+01    1.862297e+03
  2.299885e+01    1.282102e+03
  2.302008e+01    1.039541e+03
  2.304130e+01    9.412853e+02
  2.306253e+01    8.998335e+02
  2.308376e+01    8.807538e+02
  2.310498e+01    8.705699e+02
  2.312621e+01    8.650156e+02
  2.314743e+01    8.609346e+02
  2.316866e+01    8.578861e+02
  2.318989e+01    8.555144e+02
  2.321111e+01    8.531553e+02
  2.323234e+01    8.512201e+02
  2.325357e+01    8.492916e+02
  2.327479e+01    8.471700e+02
  2.329602e+01    8.450558e+02
  2.331725e+01    8.425258e+02
  2.333847e+01    8.401796e+02
  2.335970e+01    8.390869e+02
  2.338093e+01    8.373221e+02
  2.340215e+01    8.353220e+02
  2.342338e+01    8.330547e+02
  2.344461e+01    8.310842e+02
  2.346583e+01    8.290591e+02
  2.348706e+01    8.275613e+02
  2.350828e+01    8.268085e+02
  2.352951e+01    8.255956e+02
  2.355074e+01    8.236530e+02
  2.357196e+01    8.220240e+02
  2.359319e+01    8.205515e+02
  2.361442e+01    8.191096e+02
  2.363564e+01    8.182120e+02
  2.365687e+01    8.175794e+02
  2.367810e+01    8.171476e+02
  2.369932e+01    8.157767e+02
  2.372055e+01    8.143900e+02
  2.374178e+01    8.137476e+02
  2.376300e+01    8.133116e+02
  2.378423e+01    8.132650e+02
  2.380545e+01    8.125993e+02
  2.382668e+01    8.111810e+02
  2.384791e+01    8.092589e+02
  2.386913e+01    8.086406e+02
  2.389036e+01    8.083661e+02
  2.391159e+01    8.072362e+02
  2.393281e+01    8.064547e+02
  2.395404e+01    8.064524e+02
  2.397527e+01    8.057785e+02
  2.399649e+01    8.045476e+02
  2.401772e+01    8.032685e+02
  2.403895e+01    8.026129e+02
  2.406017e+01    8.024229e+02
  2.408140e+01    8.021281e+02
  2.410262e+01    8.009491e+02
  2.412385e+01    8.002630e+02
  2.414508e+01    7.998052e+02
  2.416630e+01    7.985512e+02
  2.418753e+01    7.973793e+02
  2.420876e+01    7.967863e+02
  2.422998e+01    7.965703e+02
  2.425121e+01    7.962573e+02
  2.427244e+01    7.959827e+02
  2.429366e+01    7.959943e+02
  2.431489e+01    7.961793e+02
  2.433612e+01    7.960338e+02
  2.435734e+01    7.965002e+02
  2.437857e+01    7.956626e+02
  2.439979e+01    7.945703e+02
  2.442102e+01    7.935029e+02
  2.444225e+01    7.932517e+02
  2.446347e+01    7.932175e+02
  2.448470e+01    7.925791e+02
  2.450593e+01    7.918124e+02
  2.452715e+01    7.912297e+02
  2.454838e+01    7.903363e+02
  2.456961e+01    7.888123e+02
  2.459083e+01    7.882667e+02
  2.461206e+01    7.876393e+02
  2.463329e+01    7.867819e+02
  2.465451e+01    7.862033e+02
  2.467574e+01    7.856941e+02
  2.469697e+01    7.853091e+02
  2.471819e+01    7.848281e+02
  2.473942e+01    7.842755e+02
  2.476064e+01    7.846074e+02
  2.478187e+01    7.845326e+02
  2.480310e+01    7.839963e+02
  2.482432e+01    7.835931e+02
  2.484555e+01    7.834434e+02
  2.486678e+01    7.829246e+02
  2.488800e+01    7.829836e+02
  2.490923e+01    7.825115e+02
  2.493046e+01    7.816650e+02
  2.495168e+01    7.821868e+02
  2.497291e+01    7.827199e+02
  2.499414e+01    7.822047e+02
  2.501536e+01    7.823323e+02
  2.503659e+01    7.819438e+02
  2.505781e+01    7.813488e+02
  2.507904e+01    7.815436e+02
  2.510027e+01    7.811024e+02
  2.512149e+01    7.807543e+02
  2.514272e+01    7.798297e+02
  2.516395e+01    7.796498e+02
  2.518517e+01    7.806757e+02
  2.520640e+01    7.804744e+02
  2.522763e+01    7.800734e+02
  2.524885e+01    7.796967e+02
  2.527008e+01    7.794155e+02
  2.529131e+01    7.800197e+02
  2.531253e+01    7.782883e+02
  2.533376e+01    7.770112e+02
  2.535498e+01    7.779120e+02
  2.537621e+01    7.781565e+02
  2.539744e+01    7.785344e+02
  2.541866e+01    7.798966e+02
  2.543989e+01    7.806236e+02
  2.546112e+01    7.809800e+02
  2.548234e+01    7.809438e+02
  2.550357e+01    7.804440e+02
  2.552480e+01    7.803988e+02
  2.554602e+01    7.807218e+02
  2.556725e+01    7.812246e+02
  2.558848e+01    7.817264e+02
  2.560970e+01    7.817170e+02
  2.563093e+01    7.818072e+02
  2.565216e+01    7.816345e+02
  2.567338e+01    7.816958e+02
  2.569461e+01    7.822784e+02
  2.571583e+01    7.822184e+02
  2.573706e+01    7.827509e+02
  2.575829e+01    7.833457e+02
  2.577951e+01    7.842534e+02
  2.580074e+01    7.845284e+02
  2.582197e+01    7.849537e+02
  2.584319e+01    7.861497e+02
  2.586442e+01    7.865980e+02
  2.588565e+01    7.869133e+02
  2.590687e+01    7.876232e+02
  2.592810e+01    7.882679e+02
  2.594933e+01    7.883262e+02
  2.597055e+01    7.887709e+02
  2.599178e+01    7.899872e+02
  2.601300e+01    7.922779e+02
  2.603423e+01    7.939412e+02
  2.605546e+01    7.958860e+02
  2.607668e+01    7.973854e+02
  2.609791e+01    7.980847e+02
  2.611914e+01    7.998923e+02
  2.614036e+01    8.020875e+02
  2.616159e+01    8.054078e+02
  2.618282e+01    8.086795e+02
  2.620404e+01    8.119886e+02
  2.622527e+01    8.170292e+02
  2.624650e+01    8.222961e+02
  2.626772e+01    8.301027e+02
  2.628895e+01    8.427181e+02
  2.631017e+01    8.685082e+02
  2.633140e+01    9.291905e+02
  2.635263e+01    1.082619e+03
  2.637385e+01    1.476972e+03
  2.639508e+01    2.422120e+03
  2.641631e+01    4.341431e+03
  2.643753e+01    7.296490e+03
  2.645876e+01    1.030704e+04
  2.647999e+01    1.154651e+04
  2.650121e+01    1.014875e+04
  2.652244e+01    7.191028e+03
  2.654367e+01    4.320422e+03
  2.656489e+01    2.430742e+03
  2.658612e+01    1.477148e+03
  2.660734e+01    1.073605e+03
  2.662857e+01    9.165888e+02
  2.664980e+01    8.559163e+02
  2.667102e+01    8.317319e+02
  2.669225e+01    8.297251e+02
  2.671348e+01    8.311978e+02
  2.673470e+01    8.112629e+02
  2.675593e+01    8.068584e+02
  2.677716e+01    8.045261e+02
  2.679838e+01    8.020909e+02
  2.681961e+01    8.002733e+02
  2.684084e+01    7.982314e+02
  2.686206e+01    7.971898e+02
  2.688329e+01    7.961583e+02
  2.690452e+01    7.941697e+02
  2.692574e+01    7.927744e+02
  2.694697e+01    7.918125e+02
  2.696819e+01    7.911462e+02
  2.698942e+01    7.912255e+02
  2.701065e+01    7.905643e+02
  2.703187e+01    7.898643e+02
  2.705310e+01    7.893152e+02
  2.707433e+01    7.884077e+02
  2.709555e+01    7.881957e+02
  2.711678e+01    7.878627e+02
  2.713801e+01    7.871716e+02
  2.715923e+01    7.867997e+02
  2.718046e+01    7.860424e+02
  2.720169e+01    7.856385e+02
  2.722291e+01    7.861797e+02
  2.724414e+01    7.856687e+02
  2.726536e+01    7.856688e+02
  2.728659e+01    7.854852e+02
  2.730782e+01    7.845511e+02
  2.732904e+01    7.843435e+02
  2.735027e+01    7.846705e+02
  2.737150e+01    7.848309e+02
  2.739272e+01    7.849208e+02
  2.741395e+01    7.849894e+02
  2.743518e+01    7.851433e+02
  2.745640e+01    7.856685e+02
  2.747763e+01    7.862869e+02
  2.749886e+01    7.859128e+02
  2.752008e+01    7.858594e+02
  2.754131e+01    7.857708e+02
  2.756253e+01    7.861266e+02
  2.758376e+01    7.865179e+02
  2.760499e+01    7.866304e+02
  2.762621e+01    7.868510e+02
  2.764744e+01    7.873936e+02
  2.766867e+01    7.881154e+02
  2.768989e+01    7.880893e+02
  2.771112e+01    7.882562e+02
  2.773235e+01    7.884855e+02
  2.775357e+01    7.891165e+02
  2.777480e+01    7.884510e+02
  2.779603e+01    7.879625e+02
  2.781725e+01    7.890623e+02
  2.783848e+01    7.897388e+02
  2.785970e+01    7.900120e+02
  2.788093e+01    7.904362e+02
  2.790216e+01    7.917316e+02
  2.792338e+01    7.922245e+02
  2.794461e+01    7.924327e+02
  2.796584e+01    7.927703e+02
  2.798706e+01    7.934771e+02
  2.800829e+01    7.946028e+02
  2.802952e+01    7.952943e+02
  2.805074e+01    7.962243e+02
  2.807197e+01    7.964025e+02
  2.809320e+01    7.969099e+02
  2.811442e+01    7.984147e+02
  2.813565e+01    8.002876e+02
  2.815688e+01    8.012837e+02
  2.817810e+01    8.023524e+02
  2.819933e+01    8.049786e+02
  2.822055e+01    8.067755e+02
  2.824178e+01    8.075115e+02
  2.826301e+01    8.088744e+02
  2.828423e+01    8.103029e+02
  2.830546e+01    8.107060e+02
  2.832669e+01    8.114316e+02
  2.834791e+01    8.125596e+02
  2.836914e+01    8.138843e+02
  2.839037e+01    8.164209e+02
  2.841159e+01    8.189890e+02
  2.843282e+01    8.211481e+02
  2.845405e+01    8.237837e+02
  2.847527e+01    8.262959e+02
  2.849650e+01    8.303007e+02
  2.851772e+01    8.346732e+02
  2.853895e+01    8.381644e+02
  2.856018e+01    8.425270e+02
  2.858140e+01    8.484871e+02
  2.860263e+01    8.541384e+02
  2.862386e+01    8.600323e+02
  2.864508e+01    8.681597e+02
  2.866631e+01    8.783466e+02
  2.868754e+01    8.919876e+02
  2.870876e+01    9.127390e+02
  2.872999e+01    9.500410e+02
  2.875122e+01    1.028838e+03
  2.877244e+01    1.221763e+03
  2.879367e+01    1.727893e+03
  2.881489e+01    3.026329e+03
  2.883612e+01    5.993446e+03
  2.885735e+01    1.139762e+04
  2.887857e+01    1.833653e+04
  2.889980e+01    2.327023e+04
  2.892103e+01    2.265863e+04
  2.894225e+01    1.711713e+04
  2.896348e+01    1.041385e+04
  2.898471e+01    5.440325e+03
  2.900593e+01    2.768857e+03
  2.902716e+01    1.605765e+03
  2.904839e+01    1.155442e+03
  2.906961e+01    9.866969e+02
  2.909084e+01    9.212220e+02
  2.911207e+01    8.919143e+02
  2.913329e+01    8.757823e+02
  2.915452e+01    8.676220e+02
  2.917574e+01    8.621259e+02
  2.919697e+01    8.582622e+02
  2.921820e+01    8.550116e+02
  2.923942e+01    8.518120e+02
  2.926065e+01    8.496170e+02
  2.928188e+01    8.473381e+02
  2.930310e+01    8.463754e+02
  2.932433e+01    8.466810e+02
  2.934556e+01    8.475225e+02
  2.936678e+01    8.481313e+02
  2.938801e+01    8.494938e+02
  2.940924e+01    8.529778e+02
  2.943046e+01    8.576812e+02
  2.945169e+01    8.709706e+02
  2.947291e+01    8.867444e+02
  2.949414e+01    8.920735e+02
  2.951537e+01    9.256462e+02
  2.953659e+01    1.014228e+03
  2.955782e+01    1.247821e+03
  2.957905e+01    1.875476e+03
  2.960027e+01    3.402896e+03
  2.962150e+01    6.423089e+03
  2.964273e+01    1.081040e+04
  2.966395e+01    1.465032e+04
  2.968518e+01    1.526249e+04
  2.970641e+01    1.224729e+04
  2.972763e+01    7.810262e+03
  2.974886e+01    4.247845e+03
  2.977008e+01    2.258284e+03
  2.979131e+01    1.376968e+03
  2.981254e+01    1.035749e+03
  2.983376e+01    9.084797e+02
  2.985499e+01    8.598884e+02
  2.987622e+01    8.390587e+02
  2.989744e+01    8.258934e+02
  2.991867e+01    8.198923e+02
  2.993990e+01    8.160977e+02
  2.996112e+01    8.131639e+02
  2.998235e+01    8.097290e+02
  3.000358e+01    8.059551e+02
  3.002480e+01    8.014421e+02
  3.004603e+01    7.952370e+02
  3.006725e+01    7.898534e+02
  3.008848e+01    7.867560e+02
  3.010971e+01    7.832690e+02
  3.013093e+01    7.807850e+02
  3.015216e+01    7.791040e+02
  3.017339e+01    7.771674e+02
  3.019461e+01    7.745427e+02
  3.021584e+01    7.722271e+02
  3.023707e+01    7.709202e+02
  3.025829e+01    7.699012e+02
  3.027952e+01    7.689487e+02
  3.030075e+01    7.674392e+02
  3.032197e+01    7.665986e+02
  3.034320e+01    7.647966e+02
  3.036443e+01    7.626715e+02
  3.038565e+01    7.611921e+02
  3.040688e+01    7.600277e+02
  3.042810e+01    7.585541e+02
  3.044933e+01    7.579388e+02
  3.047056e+01    7.602062e+02
  3.049178e+01    7.700127e+02
  3.051301e+01    7.637715e+02
  3.053424e+01    7.551566e+02
  3.055546e+01    7.535990e+02
  3.057669e+01    7.523721e+02
  3.059792e+01    7.520463e+02
  3.061914e+01    7.516796e+02
  3.064037e+01    7.512180e+02
  3.066160e+01    7.496872e+02
  3.068282e+01    7.487011e+02
  3.070405e+01    7.483817e+02
  3.072527e+01    7.471296e+02
  3.074650e+01    7.459615e+02
  3.076773e+01    7.453712e+02
  3.078895e+01    7.523853e+02
  3.081018e+01    7.560758e+02
  3.083141e+01    7.447484e+02
  3.085263e+01    7.427584e+02
  3.087386e+01    7.426573e+02
  3.089509e+01    7.418358e+02
  3.091631e+01    7.411052e+02
  3.093754e+01    7.404142e+02
  3.095877e+01    7.397565e+02
  3.097999e+01    7.394616e+02
  3.100122e+01    7.402424e+02
  3.102244e+01    7.399716e+02
  3.104367e+01    7.394714e+02
  3.106490e+01    7.387468e+02
  3.108612e+01    7.382391e+02
  3.110735e+01    7.370699e+02
  3.112858e+01    7.364518e+02
  3.114980e+01    7.364695e+02
  3.117103e+01    7.358558e+02
  3.119226e+01    7.350099e+02
  3.121348e+01    7.344295e+02
  3.123471e+01    7.339848e+02
  3.125594e+01    7.331880e+02
  3.127716e+01    7.328738e+02
  3.129839e+01    7.483912e+02
  3.131962e+01    7.386710e+02
  3.134084e+01    7.318501e+02
  3.136207e+01    7.322879e+02
  3.138329e+01    7.319064e+02
  3.140452e+01    7.320231e+02
  3.142575e+01    7.319141e+02
  3.144697e+01    7.313702e+02
  3.146820e+01    7.313180e+02
  3.148943e+01    7.311701e+02
  3.151065e+01    7.294958e+02
  3.153188e+01    7.302791e+02
  3.155311e+01    7.306082e+02
  3.157433e+01    7.305620e+02
  3.159556e+01    7.309537e+02
  3.161679e+01    7.302731e+02
  3.163801e+01    7.300085e+02
  3.165924e+01    7.302724e+02
  3.168046e+01    7.305166e+02
  3.170169e+01    7.313388e+02
  3.172292e+01    7.320292e+02
  3.174414e+01    7.325919e+02
  3.176537e+01    7.331951e+02
  3.178660e+01    7.329330e+02
  3.180782e+01    7.331207e+02
  3.182905e+01    7.331518e+02
  3.185028e+01    7.327158e+02
  3.187150e+01    7.326885e+02
  3.189273e+01    7.328666e+02
  3.191396e+01    7.338531e+02
  3.193518e+01    7.347325e+02
  3.195641e+01    7.357873e+02
  3.197763e+01    7.364438e+02
  3.199886e+01    7.370327e+02
  3.202009e+01    7.375510e+02
  3.204131e+01    7.381232e+02
  3.206254e+01    7.392547e+02
  3.208377e+01    7.408279e+02
  3.210499e+01    7.426085e+02
  3.212622e+01    7.561215e+02
  3.214745e+01    7.567392e+02
  3.216867e+01    7.481248e+02
  3.218990e+01    7.508116e+02
  3.221113e+01    7.537984e+02
  3.223235e+01    7.569985e+02
  3.225358e+01    7.612061e+02
  3.227480e+01    7.654786e+02
  3.229603e+01    7.708903e+02
  3.231726e+01    7.773813e+02
  3.233848e+01    7.858187e+02
  3.235971e+01    7.959374e+02
  3.238094e+01    8.087061e+02
  3.240216e+01    8.274251e+02
  3.242339e+01    8.627487e+02
  3.244462e+01    9.415857e+02
  3.246584e+01    1.144139e+03
  3.248707e+01    1.705757e+03
  3.250830e+01    3.199623e+03
  3.252952e+01    6.560448e+03
  3.255075e+01    1.221869e+04
  3.257198e+01    1.826783e+04
  3.259320e+01    2.065122e+04
  3.261443e+01    1.743831e+04
  3.263565e+01    1.128677e+04
  3.265688e+01    5.978205e+03
  3.267811e+01    2.921910e+03
  3.269933e+01    1.571763e+03
  3.272056e+01    1.065731e+03
  3.274179e+01    8.856712e+02
  3.276301e+01    8.192358e+02
  3.278424e+01    7.916049e+02
  3.280547e+01    7.773923e+02
  3.282669e+01    7.689293e+02
  3.284792e+01    7.614322e+02
  3.286915e+01    7.549554e+02
  3.289037e+01    7.497085e+02
  3.291160e+01    7.448038e+02
  3.293282e+01    7.403149e+02
  3.295405e+01    7.368550e+02
  3.297528e+01    7.333288e+02
  3.299650e+01    7.298893e+02
  3.301773e+01    7.274266e+02
  3.303896e+01    7.255204e+02
  3.306018e+01    7.242825e+02
  3.308141e+01    7.219613e+02
  3.310264e+01    7.258484e+02
  3.312386e+01    7.318213e+02
  3.314509e+01    7.192323e+02
  3.316632e+01    7.155231e+02
  3.318754e+01    7.138878e+02
  3.320877e+01    7.129568e+02
  3.322999e+01    7.118846e+02
  3.325122e+01    7.102518e+02
  3.327245e+01    7.196863e+02
  3.329367e+01    7.105535e+02
  3.331490e+01    6.995349e+02
  3.333613e+01    6.988713e+02
  3.335735e+01    6.984384e+02
  3.337858e+01    6.964904e+02
  3.339981e+01    6.938721e+02
  3.342103e+01    6.913923e+02
  3.344226e+01    6.890714e+02
  3.346349e+01    6.884375e+02
  3.348471e+01    6.867473e+02
  3.350594e+01    6.851943e+02
  3.352716e+01    6.881147e+02
  3.354839e+01    6.907904e+02
  3.356962e+01    6.925554e+02
  3.359084e+01    6.930933e+02
  3.361207e+01    6.941513e+02
  3.363330e+01    6.945823e+02
  3.365452e+01    6.949091e+02
  3.367575e+01    6.949988e+02
  3.369698e+01    6.944207e+02
  3.371820e+01    6.928161e+02
  3.373943e+01    6.915856e+02
  3.376066e+01    6.905049e+02
  3.378188e+01    6.877243e+02
  3.380311e+01    6.854952e+02
  3.382434e+01    6.843825e+02
  3.384556e+01    6.835184e+02
  3.386679e+01    6.853475e+02
  3.388801e+01    6.866294e+02
  3.390924e+01    6.866796e+02
  3.393047e+01    6.868129e+02
  3.395169e+01    6.867323e+02
  3.397292e+01    6.867235e+02
  3.399415e+01    6.862636e+02
  3.401537e+01    6.855859e+02
  3.403660e+01    6.819113e+02
  3.405783e+01    6.811413e+02
  3.407905e+01    6.845070e+02
  3.410028e+01    6.869108e+02
  3.412151e+01    6.887362e+02
  3.414273e+01    6.902858e+02
  3.416396e+01    6.916937e+02
  3.418518e+01    6.929688e+02
  3.420641e+01    6.954013e+02
  3.422764e+01    6.982967e+02
  3.424886e+01    7.012650e+02
  3.427009e+01    7.034280e+02
  3.429132e+01    7.063652e+02
  3.431254e+01    7.112538e+02
  3.433377e+01    7.157172e+02
  3.435500e+01    7.341129e+02
  3.437622e+01    7.423778e+02
  3.439745e+01    7.332998e+02
  3.441868e+01    7.432460e+02
  3.443990e+01    7.572750e+02
  3.446113e+01    7.797249e+02
  3.448235e+01    8.252694e+02
  3.450358e+01    9.410633e+02
  3.452481e+01    1.278150e+03
  3.454603e+01    2.221579e+03
  3.456726e+01    4.503013e+03
  3.458849e+01    8.726844e+03
  3.460971e+01    1.373174e+04
  3.463094e+01    1.619532e+04
  3.465217e+01    1.405655e+04
  3.467339e+01    9.233255e+03
  3.469462e+01    4.940746e+03
  3.471585e+01    2.449808e+03
  3.473707e+01    1.353848e+03
  3.475830e+01    9.473125e+02
  3.477953e+01    8.060179e+02
  3.480075e+01    7.544926e+02
  3.482198e+01    7.328538e+02
  3.484320e+01    7.214941e+02
  3.486443e+01    7.146431e+02
  3.488566e+01    7.083983e+02
  3.490688e+01    7.028079e+02
  3.492811e+01    6.981443e+02
  3.494934e+01    6.939688e+02
  3.497056e+01    6.900490e+02
  3.499179e+01    6.861206e+02
  3.501302e+01    6.837227e+02
  3.503424e+01    6.802454e+02
  3.505547e+01    6.776380e+02
  3.507670e+01    6.755733e+02
  3.509792e+01    6.722064e+02
  3.511915e+01    6.701844e+02
  3.514037e+01    6.695431e+02
  3.516160e+01    6.680397e+02
  3.518283e+01    6.663696e+02
  3.520405e+01    6.650986e+02
  3.522528e+01    6.837267e+02
  3.524651e+01    6.831785e+02
  3.526773e+01    6.857445e+02
  3.528896e+01    6.664487e+02
  3.531019e+01    6.595474e+02
  3.533141e+01    6.586796e+02
  3.535264e+01    6.573169e+02
  3.537387e+01    6.572241e+02
  3.539509e+01    6.573868e+02
  3.541632e+01    6.568348e+02
  3.543754e+01    6.545438e+02
  3.545877e+01    6.534006e+02
  3.548000e+01    6.536647e+02
  3.550122e+01    6.525577e+02
  3.552245e+01    6.513491e+02
  3.554368e+01    6.731236e+02
  3.556490e+01    6.676840e+02
  3.558613e+01    6.492150e+02
  3.560736e+01    6.480185e+02
  3.562858e+01    6.484885e+02
  3.564981e+01    6.481229e+02
  3.567104e+01    6.474990e+02
  3.569226e+01    6.475226e+02
  3.571349e+01    6.466787e+02
  3.573471e+01    6.466166e+02
  3.575594e+01    6.466395e+02
  3.577717e+01    6.469515e+02
  3.579839e+01    6.461777e+02
  3.581962e+01    6.458837e+02
  3.584085e+01    6.461198e+02
  3.586207e+01    6.446751e+02
  3.588330e+01    6.440275e+02
  3.590453e+01    6.440402e+02
  3.592575e+01    6.433738e+02
  3.594698e+01    6.604577e+02
  3.596821e+01    6.667315e+02
  3.598943e+01    6.430801e+02
  3.601066e+01    6.433427e+02
  3.603189e+01    6.422620e+02
  3.605311e+01    6.412684e+02
  3.607434e+01    6.411862e+02
  3.609556e+01    6.407941e+02
  3.611679e+01    6.414043e+02
  3.613802e+01    6.410538e+02
  3.615924e+01    6.412816e+02
  3.618047e+01    6.412221e+02
  3.620170e+01    6.406697e+02
  3.622292e+01    6.402426e+02
  3.624415e+01    6.401661e+02
  3.626538e+01    6.410693e+02
  3.628660e+01    6.413235e+02
  3.630783e+01    6.407418e+02
  3.632906e+01    6.403236e+02
  3.635028e+01    6.402085e+02
  3.637151e+01    6.409719e+02
  3.639273e+01    6.413278e+02
  3.641396e+01    6.410408e+02
  3.643519e+01    6.445930e+02
  3.645641e+01    6.678945e+02
  3.647764e+01    6.533396e+02
  3.649887e+01    6.389789e+02
  3.652009e+01    6.379714e+02
  3.654132e+01    6.387615e+02
  3.656255e+01    6.412875e+02
  3.658377e+01    6.413240e+02
  3.660500e+01    6.400225e+02
  3.662623e+01    6.405012e+02
  3.664745e+01    6.397834e+02
  3.666868e+01    6.383920e+02
  3.668990e+01    6.391025e+02
  3.671113e+01    6.404908e+02
  3.673236e+01    6.415007e+02
  3.675358e+01    6.413562e+02
  3.677481e+01    6.409493e+02
  3.679604e+01    6.406027e+02
  3.681726e+01    6.407509e+02
  3.683849e+01    6.411354e+02
  3.685972e+01    6.407100e+02
  3.688094e+01    6.411680e+02
  3.690217e+01    6.680686e+02
  3.692340e+01    6.667324e+02
  3.694462e+01    6.431398e+02
  3.696585e+01    6.427642e+02
  3.698708e+01    6.420440e+02
  3.700830e+01    6.430092e+02
  3.702953e+01    6.444763e+02
  3.705075e+01    6.445157e+02
  3.707198e+01    6.446254e+02
  3.709321e+01    6.450085e+02
  3.711443e+01    6.446735e+02
  3.713566e+01    6.445869e+02
  3.715689e+01    6.444880e+02
  3.717811e+01    6.457195e+02
  3.719934e+01    6.473185e+02
  3.722057e+01    6.480649e+02
  3.724179e+01    6.490930e+02
  3.726302e+01    6.493065e+02
  3.728425e+01    6.489409e+02
  3.730547e+01    6.477556e+02
  3.732670e+01    6.478316e+02
  3.734792e+01    6.491439e+02
  3.736915e+01    6.491041e+02
  3.739038e+01    6.481089e+02
  3.741160e+01    6.507465e+02
  3.743283e+01    6.530596e+02
  3.745406e+01    6.536964e+02
  3.747528e+01    6.538320e+02
  3.749651e+01    6.554633e+02
  3.751774e+01    6.586984e+02
  3.753896e+01    6.612969e+02
  3.756019e+01    6.636533e+02
  3.758142e+01    6.666189e+02
  3.760264e+01    6.703194e+02
  3.762387e+01    6.743326e+02
  3.764509e+01    6.813542e+02
  3.766632e+01    6.954512e+02
  3.768755e+01    7.278888e+02
  3.770877e+01    8.182443e+02
  3.773000e+01    1.091179e+03
  3.775123e+01    1.808477e+03
  3.777245e+01    3.209678e+03
  3.779368e+01    4.922831e+03
  3.781491e+01    5.719298e+03
  3.783613e+01    4.894882e+03
  3.785736e+01    3.259445e+03
  3.787859e+01    1.894024e+03
  3.789981e+01    1.143193e+03
  3.792104e+01    8.326018e+02
  3.794226e+01    7.238710e+02
  3.796349e+01    6.866953e+02
  3.798472e+01    6.746448e+02
  3.800594e+01    6.696458e+02
  3.802717e+01    6.669169e+02
  3.804840e+01    6.643244e+02
  3.806962e+01    6.631531e+02
  3.809085e+01    6.621077e+02
  3.811208e+01    6.603005e+02
  3.813330e+01    6.586354e+02
  3.815453e+01    6.572421e+02
  3.817576e+01    6.564219e+02
  3.819698e+01    6.560129e+02
  3.821821e+01    6.573874e+02
  3.823944e+01    6.573691e+02
  3.826066e+01    6.999561e+02
  3.828189e+01    6.791923e+02
  3.830311e+01    6.560228e+02
  3.832434e+01    6.565280e+02
  3.834557e+01    6.561109e+02
  3.836679e+01    6.555770e+02
  3.838802e+01    6.544012e+02
  3.840925e+01    6.547784e+02
  3.843047e+01    6.551965e+02
  3.845170e+01    6.557308e+02
  3.847293e+01    6.563342e+02
  3.849415e+01    6.553714e+02
  3.851538e+01    6.566224e+02
  3.853661e+01    6.567678e+02
  3.855783e+01    6.581914e+02
  3.857906e+01    6.578542e+02
  3.860028e+01    6.576190e+02
  3.862151e+01    6.588612e+02
  3.864274e+01    6.586604e+02
  3.866396e+01    6.593239e+02
  3.868519e+01    6.607203e+02
  3.870642e+01    6.611341e+02
  3.872764e+01    6.617613e+02
  3.874887e+01    6.625985e+02
  3.877010e+01    6.635383e+02
  3.879132e+01    6.627404e+02
  3.881255e+01    6.625952e+02
  3.883378e+01    6.633173e+02
  3.885500e+01    6.627809e+02
  3.887623e+01    6.621039e+02
  3.889745e+01    6.641850e+02
  3.891868e+01    6.647141e+02
  3.893991e+01    6.662879e+02
  3.896113e+01    6.686949e+02
  3.898236e+01    6.681568e+02
  3.900359e+01    6.694182e+02
  3.902481e+01    6.699706e+02
  3.904604e+01    6.704267e+02
  3.906727e+01    6.711617e+02
  3.908849e+01    6.736777e+02
  3.910972e+01    6.760141e+02
  3.913095e+01    6.760315e+02
  3.915217e+01    6.774540e+02
  3.917340e+01    6.806613e+02
  3.919462e+01    6.818924e+02
  3.921585e+01    6.835731e+02
  3.923708e+01    6.865345e+02
  3.925830e+01    6.890967e+02
  3.927953e+01    6.905200e+02
  3.930076e+01    6.914336e+02
  3.932198e+01    6.972576e+02
  3.934321e+01    7.061473e+02
  3.936444e+01    7.121426e+02
  3.938566e+01    7.219561e+02
  3.940689e+01    7.320225e+02
  3.942812e+01    7.413896e+02
  3.944934e+01    7.580981e+02
  3.947057e+01    8.122922e+02
  3.949180e+01    9.201176e+02
  3.951302e+01    1.066289e+03
  3.953425e+01    1.683045e+03
  3.955547e+01    3.450348e+03
  3.957670e+01    7.140419e+03
  3.959793e+01    1.173720e+04
  3.961915e+01    1.385657e+04
  3.964038e+01    1.145291e+04
  3.966161e+01    6.994847e+03
  3.968283e+01    3.495639e+03
  3.970406e+01    1.738618e+03
  3.972529e+01    1.060286e+03
  3.974651e+01    8.357800e+02
  3.976774e+01    7.658611e+02
  3.978897e+01    7.407400e+02
  3.981019e+01    7.295117e+02
  3.983142e+01    7.220795e+02
  3.985264e+01    7.169116e+02
  3.987387e+01    7.127095e+02
  3.989510e+01    7.095805e+02
  3.991632e+01    7.066055e+02
  3.993755e+01    7.070161e+02
  3.995878e+01    7.071317e+02
  3.998000e+01    7.049823e+02
  4.000123e+01    7.083783e+02
  4.002246e+01    7.118345e+02
  4.004368e+01    7.194179e+02
  4.006491e+01    7.342697e+02
  4.008614e+01    7.768282e+02
  4.010736e+01    9.047787e+02
  4.012859e+01    1.306941e+03
  4.014981e+01    2.341112e+03
  4.017104e+01    4.169588e+03
  4.019227e+01    5.930962e+03
  4.021349e+01    6.134022e+03
  4.023472e+01    4.574686e+03
  4.025595e+01    2.681787e+03
  4.027717e+01    1.477540e+03
  4.029840e+01    9.566530e+02
  4.031963e+01    7.751584e+02
  4.034085e+01    7.183553e+02
  4.036208e+01    7.002652e+02
  4.038331e+01    6.920777e+02
  4.040453e+01    6.851426e+02
  4.042576e+01    6.815608e+02
  4.044699e+01    6.793881e+02
  4.046821e+01    6.794033e+02
  4.048944e+01    6.765101e+02
  4.051066e+01    6.746505e+02
  4.053189e+01    6.729808e+02
  4.055312e+01    6.717814e+02
  4.057434e+01    6.668347e+02
  4.059557e+01    6.666762e+02
  4.061680e+01    6.657946e+02
  4.063802e+01    6.609359e+02
  4.065925e+01    6.617465e+02
  4.068048e+01    6.628601e+02
  4.070170e+01    6.608868e+02
  4.072293e+01    6.591799e+02
  4.074416e+01    6.585063e+02
  4.076538e+01    6.575012e+02
  4.078661e+01    6.572964e+02
  4.080783e+01    6.572055e+02
  4.082906e+01    6.583581e+02
  4.085029e+01    6.574616e+02
  4.087151e+01    6.876708e+02
  4.089274e+01    7.641594e+02
  4.091397e+01    6.703524e+02
  4.093519e+01    6.573232e+02
  4.095642e+01    6.567941e+02
  4.097765e+01    6.570272e+02
  4.099887e+01    6.560101e+02
  4.102010e+01    6.561896e+02
  4.104133e+01    6.580119e+02
  4.106255e+01    6.564651e+02
  4.108378e+01    6.541948e+02
  4.110500e+01    6.547158e+02
  4.112623e+01    6.575009e+02
  4.114746e+01    6.536320e+02
  4.116868e+01    6.565865e+02
  4.118991e+01    6.536717e+02
  4.121114e+01    6.538199e+02
  4.123236e+01    6.536514e+02
  4.125359e+01    6.522953e+02
  4.127482e+01    6.528547e+02
  4.129604e+01    6.537604e+02
  4.131727e+01    6.529086e+02
  4.133850e+01    6.526140e+02
  4.135972e+01    6.540822e+02
  4.138095e+01    6.539936e+02
  4.140217e+01    6.525745e+02
  4.142340e+01    6.548472e+02
  4.144463e+01    6.537886e+02
  4.146585e+01    6.508185e+02
  4.148708e+01    6.525762e+02
  4.150831e+01    6.554806e+02
  4.152953e+01    6.532043e+02
  4.155076e+01    6.504922e+02
  4.157199e+01    6.538600e+02
  4.159321e+01    6.534952e+02
  4.161444e+01    6.551431e+02
  4.163567e+01    6.529019e+02
  4.165689e+01    6.529106e+02
  4.167812e+01    6.534312e+02
  4.169935e+01    6.534672e+02
  4.172057e+01    6.560361e+02
  4.174180e+01    6.549518e+02
  4.176302e+01    6.553442e+02
  4.178425e+01    6.541816e+02
  4.180548e+01    6.545068e+02
  4.182670e+01    6.545451e+02
  4.184793e+01    6.542554e+02
  4.186916e+01    6.559774e+02
  4.189038e+01    6.535676e+02
  4.191161e+01    6.532010e+02
  4.193284e+01    6.555747e+02
  4.195406e+01    6.561734e+02
  4.197529e+01    6.547647e+02
  4.199652e+01    6.532327e+02
  4.201774e+01    6.527747e+02
  4.203897e+01    6.577131e+02
  4.206019e+01    6.575490e+02
  4.208142e+01    6.578918e+02
  4.210265e+01    6.564515e+02
  4.212387e+01    6.588069e+02
  4.214510e+01    6.605958e+02
  4.216633e+01    6.595511e+02
  4.218755e+01    6.591270e+02
  4.220878e+01    6.589434e+02
  4.223001e+01    6.626573e+02
  4.225123e+01    6.699957e+02
  4.227246e+01    6.733519e+02
  4.229369e+01    6.761389e+02
  4.231491e+01    6.794238e+02
  4.233614e+01    6.917646e+02
  4.235736e+01    7.115341e+02
  4.237859e+01    7.728668e+02
  4.239982e+01    9.883316e+02
  4.242104e+01    1.724092e+03
  4.244227e+01    3.343854e+03
  4.246350e+01    5.380012e+03
  4.248472e+01    6.154719e+03
  4.250595e+01    5.009402e+03
  4.252718e+01    3.087146e+03
  4.254840e+01    1.656009e+03
  4.256963e+01    9.856174e+02
  4.259086e+01    7.544882e+02
  4.261208e+01    6.841446e+02
  4.263331e+01    6.624667e+02
  4.265454e+01    6.508743e+02
  4.267576e+01    6.426591e+02
  4.269699e+01    6.392304e+02
  4.271821e+01    6.318274e+02
  4.273944e+01    6.232856e+02
  4.276067e+01    6.157496e+02
  4.278189e+01    6.096964e+02
  4.280312e+01    6.053047e+02
  4.282435e+01    6.010669e+02
  4.284557e+01    6.004512e+02
  4.286680e+01    5.898649e+02
  4.288803e+01    5.847897e+02
  4.290925e+01    5.803853e+02
  4.293048e+01    5.747766e+02
  4.295171e+01    5.711754e+02
  4.297293e+01    5.626011e+02
  4.299416e+01    5.577250e+02
  4.301538e+01    5.522643e+02
  4.303661e+01    5.460964e+02
  4.305784e+01    5.308234e+02
  4.307906e+01    5.219540e+02
  4.310029e+01    5.343894e+02
  4.312152e+01    5.278464e+02
  4.314274e+01    5.105110e+02
  4.316397e+01    5.142964e+02
  4.318520e+01    5.080142e+02
  4.320642e+01    4.946371e+02
  4.322765e+01    4.801580e+02
  4.324888e+01    4.467211e+02
  4.327010e+01    4.181171e+02
  4.329133e+01    3.985347e+02
  4.331255e+01    3.688686e+02
  4.333378e+01    3.360192e+02
  4.335501e+01    3.061016e+02
  4.337623e+01    2.964261e+02
  4.339746e+01    2.777621e+02
  4.341869e+01    2.656180e+02
  4.343991e+01    2.766208e+02
  4.346114e+01    2.853983e+02
